# Developed by  NerWann module of the Wannier90 code.
# Total Transport distribution function (in SI units of m^2*C^3/S^3) vs energy in eV
# Content of the columns:
# Energy xxz xyz yyz xzz yzz zzz yxz zxz zyz
#   (if spin decomposition is required, 18 further columns are provided, with the 9
#    components of the TDFtot for the spin up, followed by those for the spin down)
  -6.041357147      0.2672035002E+15  0.3220821906E+13  0.2160490343E+15 -0.3250192841E+14  0.4916762569E+12  0.2013131609E+15  0.3220821906E+13 -0.3250192841E+14  0.4916762569E+12
  -6.040357147      0.3007820757E+15  0.6017214526E+13  0.2251767696E+15 -0.3378638682E+14  0.5162342379E+12  0.2095270084E+15  0.6017214526E+13 -0.3378638682E+14  0.5162342379E+12
  -6.039357147      0.3130539376E+15  0.6262927362E+13  0.2343636538E+15 -0.3516471792E+14  0.5368866002E+12  0.2180758290E+15  0.6262927362E+13 -0.3516471792E+14  0.5368866002E+12
  -6.038357147      0.3258263500E+15  0.6518680048E+13  0.2439252326E+15 -0.3659925671E+14  0.5583472168E+12  0.2269733556E+15  0.6518680048E+13 -0.3659925671E+14  0.5583472168E+12
  -6.037357147      0.3391197179E+15  0.6784883328E+13  0.2538767784E+15 -0.3809229346E+14  0.5806461960E+12  0.2362338041E+15  0.6784883328E+13 -0.3809229346E+14  0.5806461960E+12
  -6.036357147      0.3529552773E+15  0.7061964789E+13  0.2642341855E+15 -0.3964621164E+14  0.6038146357E+12  0.2458719698E+15  0.7061964789E+13 -0.3964621164E+14  0.6038146357E+12
  -6.035357147      0.3673551286E+15  0.7350369562E+13  0.2750139948E+15 -0.4126349167E+14  0.6278846440E+12  0.2559032501E+15  0.7350369562E+13 -0.4126349167E+14  0.6278846440E+12
  -6.034357147      0.3823422720E+15  0.7650561038E+13  0.2862334208E+15 -0.4294671482E+14  0.6528893584E+12  0.2663436694E+15  0.7650561038E+13 -0.4294671482E+14  0.6528893584E+12
  -6.033357147      0.3979406441E+15  0.7963021632E+13  0.2979103782E+15 -0.4469856735E+14  0.6788629651E+12  0.2772099048E+15  0.7963021632E+13 -0.4469856735E+14  0.6788629651E+12
  -6.032357147      0.4141751555E+15  0.8288253556E+13  0.3100635109E+15 -0.4652184473E+14  0.7058407163E+12  0.2885193119E+15  0.8288253556E+13 -0.4652184473E+14  0.7058407163E+12
  -6.031357147      0.4310717308E+15  0.8626779647E+13  0.3227122209E+15 -0.4841945608E+14  0.7338589465E+12  0.3002899529E+15  0.8626779647E+13 -0.4841945608E+14  0.7338589465E+12
  -6.030357147      0.4486573494E+15  0.8979144211E+13  0.3358766999E+15 -0.5039442874E+14  0.7629550867E+12  0.3125406253E+15  0.8979144211E+13 -0.5039442874E+14  0.7629550867E+12
  -6.029357147      0.4669600885E+15  0.9345913916E+13  0.3495779605E+15 -0.5244991309E+14  0.7931676778E+12  0.3252908913E+15  0.9345913916E+13 -0.5244991309E+14  0.7931676778E+12
  -6.028357147      0.4860091676E+15  0.9727678714E+13  0.3638378701E+15 -0.5458918751E+14  0.8245363805E+12  0.3385611094E+15  0.9727678714E+13 -0.5458918751E+14  0.8245363805E+12
  -6.027357147      0.5058349947E+15  0.1012505281E+14  0.3786791851E+15 -0.5681566357E+14  0.8571019839E+12  0.3523724661E+15  0.1012505281E+14 -0.5681566357E+14  0.8571019839E+12
  -6.026357147      0.5264692145E+15  0.1053867564E+14  0.3941255870E+15 -0.5913289139E+14  0.8909064105E+12  0.3667470101E+15  0.1053867564E+14 -0.5913289139E+14  0.8909064105E+12
  -6.025357147      0.5479447587E+15  0.1096921298E+14  0.4102017203E+15 -0.6154456527E+14  0.9259927188E+12  0.3817076868E+15  0.1096921298E+14 -0.6154456527E+14  0.9259927188E+12
  -6.024357147      0.5703105397E+15  0.1065449254E+14  0.4666801352E+15 -0.6474296222E+14  0.3683121039E+14  0.4296474664E+15  0.1065449254E+14 -0.6474296222E+14  0.3683121039E+14
  -6.023357147      0.5935735355E+15  0.1108983662E+14  0.4857156593E+15 -0.6738330992E+14  0.3833268949E+14  0.4471738981E+15  0.1108983662E+14 -0.6738330992E+14  0.3833268949E+14
  -6.022357147      0.6177849282E+15  0.1154299115E+14  0.5055272010E+15 -0.7013125723E+14  0.3989530945E+14  0.4654149465E+15  0.1154299115E+14 -0.7013125723E+14  0.3989530945E+14
  -6.021357147      0.6429833408E+15  0.1201468664E+14  0.5261463606E+15 -0.7299118247E+14  0.4152155418E+14  0.4843997216E+15  0.1201468664E+14 -0.7299118247E+14  0.4152155418E+14
  -6.020357147      0.6692089656E+15  0.1250568368E+14  0.5476060221E+15 -0.7596764157E+14  0.4321400806E+14  0.5041585169E+15  0.1250568368E+14 -0.7596764157E+14  0.4321400806E+14
  -6.019357147      0.6965036279E+15  0.1301677425E+14  0.5699404055E+15 -0.7906537524E+14  0.4497535990E+14  0.5247228570E+15  0.1301677425E+14 -0.7906537524E+14  0.4497535990E+14
  -6.018357147      0.7249108518E+15  0.1354878300E+14  0.5931851202E+15 -0.8228931641E+14  0.4680840716E+14  0.5461255482E+15  0.1354878300E+14 -0.8228931641E+14  0.4680840716E+14
  -6.017357147      0.7544759292E+15  0.1410256859E+14  0.6173772218E+15 -0.8564459794E+14  0.4871606026E+14  0.5684007297E+15  0.1410256859E+14 -0.8564459794E+14  0.4871606026E+14
  -6.016357147      0.7852459907E+15  0.1467902519E+14  0.6425552699E+15 -0.8913656071E+14  0.5070134713E+14  0.5915839277E+15  0.1467902519E+14 -0.8913656071E+14  0.5070134713E+14
  -6.015357147      0.8172700805E+15  0.1527908385E+14  0.6687593895E+15 -0.9277076196E+14  0.5276741787E+14  0.6157121117E+15  0.1527908385E+14 -0.9277076196E+14  0.5276741787E+14
  -6.014357147      0.8696123277E+15  0.3564428652E+14  0.7379072431E+15 -0.9528945745E+14  0.3079057742E+14  0.6711759165E+15  0.3564428652E+14 -0.9528945745E+14  0.3079057742E+14
  -6.013357147      0.9050755150E+15  0.3710005062E+14  0.7679992871E+15 -0.9917415604E+14  0.3204363041E+14  0.6985496276E+15  0.3710005062E+14 -0.9917415604E+14  0.3204363041E+14
  -6.012357147      0.9419837881E+15  0.3861531637E+14  0.7993175364E+15 -0.1032170479E+15  0.3334752768E+14  0.7270390246E+15  0.3861531637E+14 -0.1032170479E+15  0.3334752768E+14
  -6.011357147      0.9803959394E+15  0.4019251961E+14  0.8319118777E+15 -0.1074245604E+15  0.3470431984E+14  0.7566895186E+15  0.4019251961E+14 -0.1074245604E+15  0.3470431984E+14
  -6.010357147      0.1020373146E+16  0.4183419621E+14  0.8658342204E+15 -0.1118033809E+15  0.3611613916E+14  0.7875483634E+15  0.4183419621E+14 -0.1118033809E+15  0.3611613916E+14
  -6.009357147      0.1061979064E+16  0.4354298621E+14  0.9011385784E+15 -0.1163604670E+15  0.3758520272E+14  0.8196647308E+15  0.4354298621E+14 -0.1163604670E+15  0.3758520272E+14
  -6.008357147      0.1105279931E+16  0.4532163811E+14  0.9378811547E+15 -0.1211030574E+15  0.3911381575E+14  0.8530897873E+15  0.4532163811E+14 -0.1211030574E+15  0.3911381575E+14
  -6.007357147      0.1164901686E+16  0.2957187907E+14  0.9974022556E+15 -0.1263496699E+15  0.4108039410E+14  0.8878834183E+15  0.2957187907E+14 -0.1263496699E+15  0.4108039410E+14
  -6.006357147      0.1212396032E+16  0.3078070901E+14  0.1038067524E+16 -0.1314988571E+15  0.4275073541E+14  0.9240880084E+15  0.3078070901E+14 -0.1314988571E+15  0.4275073541E+14
  -6.005357147      0.1280582018E+16  0.3330234793E+14  0.1080474172E+16 -0.1548306293E+15  0.4327823337E+14  0.9789892565E+15  0.3330234793E+14 -0.1548306293E+15  0.4327823337E+14
  -6.004357147      0.1332822213E+16  0.3540752362E+14  0.1141324495E+16 -0.1621709483E+15  0.2176664261E+14  0.1051136648E+16  0.3540752362E+14 -0.1621709483E+15  0.2176664261E+14
  -6.003357147      0.1412253865E+16  0.3545142993E+14  0.1187931078E+16 -0.1456821201E+15  0.2135539414E+14  0.1115253270E+16  0.3545142993E+14 -0.1456821201E+15  0.2135539414E+14
  -6.002357147      0.1554657494E+16 -0.6642780994E+12  0.1265577596E+16 -0.1240010148E+15  0.2112089195E+14  0.1179560553E+16 -0.6642780994E+12 -0.1240010148E+15  0.2112089195E+14
  -6.001357147      0.1618034858E+16 -0.6882999064E+12  0.1317167724E+16 -0.1290509066E+15  0.2197376230E+14  0.1227653278E+16 -0.6882999064E+12 -0.1290509066E+15  0.2197376230E+14
  -6.000357147      0.1683992927E+16 -0.7130459466E+12  0.1370858371E+16 -0.1343060001E+15  0.2286068438E+14  0.1277704873E+16 -0.7130459466E+12 -0.1343060001E+15  0.2286068438E+14
  -5.999357147      0.1752636541E+16 -0.7385245811E+12  0.1426734853E+16 -0.1397745957E+15  0.2378298534E+14  0.1329794963E+16 -0.7385245811E+12 -0.1397745957E+15  0.2378298534E+14
  -5.998357147      0.1824074778E+16 -0.7647427641E+12  0.1484885934E+16 -0.1454653269E+15  0.2474204130E+14  0.1384006395E+16 -0.7647427641E+12 -0.1454653269E+15  0.2474204130E+14
  -5.997357147      0.1898421127E+16 -0.7917058420E+12  0.1545403963E+16 -0.1513871725E+15  0.2573927899E+14  0.1440425369E+16 -0.7917058420E+12 -0.1513871725E+15  0.2573927899E+14
  -5.996357147      0.1975793660E+16 -0.8194173331E+12  0.1608385018E+16 -0.1575494708E+15  0.2677617728E+14  0.1499141571E+16 -0.8194173331E+12 -0.1575494708E+15  0.2677617728E+14
  -5.995357147      0.2056315217E+16 -0.8478786849E+12  0.1673929055E+16 -0.1639619333E+15  0.2785426885E+14  0.1560248316E+16 -0.8478786849E+12 -0.1639619333E+15  0.2785426885E+14
  -5.994357147      0.2140113597E+16 -0.8770890084E+12  0.1742140063E+16 -0.1706346597E+15  0.2897514184E+14  0.1623842688E+16 -0.8770890084E+12 -0.1706346597E+15  0.2897514184E+14
  -5.993357147      0.2227321754E+16 -0.9070447869E+12  0.1813126225E+16 -0.1775781523E+15  0.3014044153E+14  0.1690025695E+16 -0.9070447869E+12 -0.1775781523E+15  0.3014044153E+14
  -5.992357147      0.2318078005E+16 -0.9377395568E+12  0.1887000084E+16 -0.1848033326E+15  0.3135187206E+14  0.1758902425E+16 -0.9377395568E+12 -0.1848033326E+15  0.3135187206E+14
  -5.991357147      0.2447339546E+16 -0.1537327883E+12  0.1983262508E+16 -0.2254959817E+15  0.4984855358E+14  0.1878953164E+16 -0.1537327883E+12 -0.2254959817E+15  0.4984855358E+14
  -5.990357147      0.2588569951E+16  0.3170496993E+14  0.2088502523E+16 -0.2321928777E+15  0.5376381609E+14  0.1955671734E+16  0.3170496993E+14 -0.2321928777E+15  0.5376381609E+14
  -5.989357147      0.2694030138E+16  0.3300677437E+14  0.2173581718E+16 -0.2416408687E+15  0.5593423088E+14  0.2035363890E+16  0.3300677437E+14 -0.2416408687E+15  0.5593423088E+14
  -5.988357147      0.2803779158E+16  0.3436235995E+14  0.2262120245E+16 -0.2514721158E+15  0.5819125612E+14  0.2118298341E+16  0.3436235995E+14 -0.2514721158E+15  0.5819125612E+14
  -5.987357147      0.2917990790E+16  0.3577397538E+14  0.2354258220E+16 -0.2617020671E+15  0.6053826405E+14  0.2204606578E+16  0.3577397538E+14 -0.2617020671E+15  0.6053826405E+14
  -5.986357147      0.3045273858E+16  0.4453372458E+14  0.2456446586E+16 -0.2486772422E+15  0.8345147197E+14  0.2360899457E+16  0.4453372458E+14 -0.2486772422E+15  0.8345147197E+14
  -5.985357147      0.3169304201E+16  0.4636200764E+14  0.2556483836E+16 -0.2587875468E+15  0.8682449216E+14  0.2457083737E+16  0.4636200764E+14 -0.2587875468E+15  0.8682449216E+14
  -5.984357147      0.3298375570E+16  0.4826579889E+14  0.2660586054E+16 -0.2693072726E+15  0.9033246128E+14  0.2557179589E+16  0.4826579889E+14 -0.2693072726E+15  0.9033246128E+14
  -5.983357147      0.3478408831E+16  0.5372392055E+14  0.2823581614E+16 -0.3002210809E+15  0.8230673986E+14  0.2671963203E+16  0.5372392055E+14 -0.3002210809E+15  0.8230673986E+14
  -5.982357147      0.3620048015E+16  0.5593016031E+14  0.2938544322E+16 -0.3124244738E+15  0.8562427872E+14  0.2780797317E+16  0.5593016031E+14 -0.3124244738E+15  0.8562427872E+14
  -5.981357147      0.3767441233E+16  0.5822757119E+14  0.3058176338E+16 -0.3251218420E+15  0.8907377959E+14  0.2894055523E+16  0.5822757119E+14 -0.3251218420E+15  0.8907377959E+14
  -5.980357147      0.3920821121E+16  0.6061996700E+14  0.3182666364E+16 -0.3383330094E+15  0.9266034537E+14  0.3011916919E+16  0.6061996700E+14 -0.3383330094E+15  0.9266034537E+14
  -5.979357147      0.4080429632E+16  0.6311132475E+14  0.3312210647E+16 -0.3520785810E+15  0.9638926404E+14  0.3134567792E+16  0.6311132475E+14 -0.3520785810E+15  0.9638926404E+14
  -5.978357147      0.4246518394E+16  0.6570579198E+14  0.3447013276E+16 -0.3663799728E+15  0.1002660144E+15  0.3262201899E+16  0.6570579198E+14 -0.3663799728E+15  0.1002660144E+15
  -5.977357147      0.4425750903E+16  0.5003952307E+14  0.3639988718E+16 -0.3768338089E+15  0.9159817989E+14  0.3398080249E+16  0.5003952307E+14 -0.3768338089E+15  0.9159817989E+14
  -5.976357147      0.4660730247E+16  0.6663654307E+14  0.3791952700E+16 -0.3705400006E+15  0.1009886036E+15  0.3544916001E+16  0.6663654307E+14 -0.3705400006E+15  0.1009886036E+15
  -5.975357147      0.4861843922E+16  0.4100039933E+14  0.4016508066E+16 -0.3783413457E+15  0.8712109381E+14  0.3693786172E+16  0.4100039933E+14 -0.3783413457E+15  0.8712109381E+14
  -5.974357147      0.5064714034E+16  0.4819312076E+14  0.4185882804E+16 -0.4108103713E+15  0.7199502902E+14  0.3902112576E+16  0.4819312076E+14 -0.4108103713E+15  0.7199502902E+14
  -5.973357147      0.5290846913E+16  0.3707818786E+14  0.4366174017E+16 -0.4394656594E+15  0.6958430771E+14  0.4185386850E+16  0.3707818786E+14 -0.4394656594E+15  0.6958430771E+14
  -5.972357147      0.5530304778E+16  0.3345945577E+14  0.4691222953E+16 -0.4728318227E+15  0.8044112092E+14  0.4365846384E+16  0.3345945577E+14 -0.4728318227E+15  0.8044112092E+14
  -5.971357147      0.5809808066E+16  0.4091144570E+14  0.4890350046E+16 -0.5264083170E+15  0.9636589207E+14  0.4601011871E+16  0.4091144570E+14 -0.5264083170E+15  0.9636589207E+14
  -5.970357147      0.6097003426E+16  0.3562344555E+14  0.5099062948E+16 -0.5116689244E+15  0.1124590032E+15  0.4847241199E+16  0.3562344555E+14 -0.5116689244E+15  0.1124590032E+15
  -5.969357147      0.6351516611E+16  0.4146357863E+14  0.5369741577E+16 -0.5119325420E+15  0.1122832367E+15  0.5113610115E+16  0.4146357863E+14 -0.5119325420E+15  0.1122832367E+15
  -5.968357147      0.6609756190E+16  0.4319752404E+14  0.5588059304E+16 -0.5326759894E+15  0.1167399422E+15  0.5321654809E+16  0.4319752404E+14 -0.5326759894E+15  0.1167399422E+15
  -5.967357147      0.6893536066E+16  0.7910137254E+14  0.5892298862E+16 -0.5451541116E+15  0.1419396545E+15  0.5543626586E+16  0.7910137254E+14 -0.5451541116E+15  0.1419396545E+15
  -5.966357147      0.7187337014E+16  0.6417498887E+14  0.6156148710E+16 -0.5833144561E+15  0.1691027660E+15  0.5788124728E+16  0.6417498887E+14 -0.5833144561E+15  0.1691027660E+15
  -5.965357147      0.7479424848E+16  0.6684686455E+14  0.6406337254E+16 -0.6069309307E+15  0.1758445308E+15  0.6023522476E+16  0.6684686455E+14 -0.6069309307E+15  0.1758445308E+15
  -5.964357147      0.7786713076E+16  0.5634601101E+14  0.6718839076E+16 -0.6362406432E+15  0.2014876301E+15  0.6275115941E+16  0.5634601101E+14 -0.6362406432E+15  0.2014876301E+15
  -5.963357147      0.8225370780E+16  0.7931796609E+14  0.7033193273E+16 -0.6309135679E+15  0.2183534473E+15  0.6563711945E+16  0.7931796609E+14 -0.6309135679E+15  0.2183534473E+15
  -5.962357147      0.8559488381E+16  0.8262186077E+14  0.7318891709E+16 -0.6564218410E+15  0.2270624724E+15  0.6830540591E+16  0.8262186077E+14 -0.6564218410E+15  0.2270624724E+15
  -5.961357147      0.8955932545E+16  0.1269343591E+15  0.7650527201E+16 -0.7322171588E+15  0.1955843216E+15  0.7160784662E+16  0.1269343591E+15 -0.7322171588E+15  0.1955843216E+15
  -5.960357147      0.9347641484E+16  0.1106634812E+15  0.7977716044E+16 -0.7339983438E+15  0.1819748325E+15  0.7479395134E+16  0.1106634812E+15 -0.7339983438E+15  0.1819748325E+15
  -5.959357147      0.9727137164E+16  0.1152642520E+15  0.8301602421E+16 -0.7636490435E+15  0.1891455865E+15  0.7783312389E+16  0.1152642520E+15 -0.7636490435E+15  0.1891455865E+15
  -5.958357147      0.1012195568E+17  0.1200596627E+15  0.8638567096E+16 -0.7944846976E+15  0.1965880523E+15  0.8099523248E+16  0.1200596627E+15 -0.7944846976E+15  0.1965880523E+15
  -5.957357147      0.1058946484E+17  0.1048600649E+15  0.8996320336E+16 -0.8517921292E+15  0.2132941287E+15  0.8439745340E+16  0.1048600649E+15 -0.8517921292E+15  0.2132941287E+15
  -5.956357147      0.1102728138E+17  0.1167787983E+15  0.9368260360E+16 -0.9089809480E+15  0.2006613311E+15  0.8846141021E+16  0.1167787983E+15 -0.9089809480E+15  0.2006613311E+15
  -5.955357147      0.1151246307E+17  0.9218891699E+14  0.9771190869E+16 -0.9153617168E+15  0.1849306852E+15  0.9229570995E+16  0.9218891699E+14 -0.9153617168E+15  0.1849306852E+15
  -5.954357147      0.1197933540E+17  0.9607627851E+14  0.1016744650E+17 -0.9522659661E+15  0.1920991716E+15  0.9604268319E+16  0.9607627851E+14 -0.9522659661E+15  0.1920991716E+15
  -5.953357147      0.1250974846E+17  0.1376380690E+15  0.1061111274E+17 -0.9638620369E+15  0.2219805445E+15  0.1001012353E+17  0.1376380690E+15 -0.9638620369E+15  0.2219805445E+15
  -5.952357147      0.1311448122E+17  0.1345202468E+15  0.1107708298E+17 -0.1016803035E+16  0.2630155654E+15  0.1044602814E+17  0.1345202468E+15 -0.1016803035E+16  0.2630155654E+15
  -5.951357147      0.1364593603E+17  0.1401679281E+15  0.1152595767E+17 -0.1057726087E+16  0.2732702726E+15  0.1086984027E+17  0.1401679281E+15 -0.1057726087E+16  0.2732702726E+15
  -5.950357147      0.1419876950E+17  0.1460588278E+15  0.1199288830E+17 -0.1100272082E+16  0.2839045298E+15  0.1131074214E+17  0.1460588278E+15 -0.1100272082E+16  0.2839045298E+15
  -5.949357147      0.1477382856E+17  0.1522038809E+15  0.1247859017E+17 -0.1144503404E+16  0.2949307024E+15  0.1176941424E+17  0.1522038809E+15 -0.1144503404E+16  0.2949307024E+15
  -5.948357147      0.1537199262E+17  0.1586145461E+15  0.1298380604E+17 -0.1190484669E+16  0.3063614145E+15  0.1224656342E+17  0.1586145461E+15 -0.1190484669E+16  0.3063614145E+15
  -5.947357147      0.1599417474E+17  0.1653028334E+15  0.1350930706E+17 -0.1238282795E+16  0.3182095419E+15  0.1274292388E+17  0.1653028334E+15 -0.1238282795E+16  0.3182095419E+15
  -5.946357147      0.1664132279E+17  0.1722813321E+15  0.1405589383E+17 -0.1287967069E+16  0.3304882017E+15  0.1325925820E+17  0.1722813321E+15 -0.1287967069E+16  0.3304882017E+15
  -5.945357147      0.1731442070E+17  0.1795632411E+15  0.1462439740E+17 -0.1339609211E+16  0.3432107413E+15  0.1379635828E+17  0.1795632411E+15 -0.1339609211E+16  0.3432107413E+15
  -5.944357147      0.1801448970E+17  0.1871624009E+15  0.1521568035E+17 -0.1393283451E+16  0.3563907246E+15  0.1435504649E+17  0.1871624009E+15 -0.1393283451E+16  0.3563907246E+15
  -5.943357147      0.1874258962E+17  0.1950933267E+15  0.1583063789E+17 -0.1449066589E+16  0.3700419165E+15  0.1493617671E+17  0.1950933267E+15 -0.1449066589E+16  0.3700419165E+15
  -5.942357147      0.1949982021E+17  0.2033712439E+15  0.1647019896E+17 -0.1507038068E+16  0.3841782653E+15  0.1554063543E+17  0.2033712439E+15 -0.1507038068E+16  0.3841782653E+15
  -5.941357147      0.2028732254E+17  0.2120121255E+15  0.1713532743E+17 -0.1567280046E+16  0.3988138818E+15  0.1616934299E+17  0.2120121255E+15 -0.1567280046E+16  0.3988138818E+15
  -5.940357147      0.2110628033E+17  0.2210327311E+15  0.1782702326E+17 -0.1629877459E+16  0.4139630164E+15  0.1682325466E+17  0.2210327311E+15 -0.1629877459E+16  0.4139630164E+15
  -5.939357147      0.2195792147E+17  0.2304506483E+15  0.1854632370E+17 -0.1694918096E+16  0.4296400331E+15  0.1750336196E+17  0.2304506483E+15 -0.1694918096E+16  0.4296400331E+15
  -5.938357147      0.2284351938E+17  0.2402843364E+15  0.1929430459E+17 -0.1762492664E+16  0.4458593801E+15  0.1821069384E+17  0.2402843364E+15 -0.1762492664E+16  0.4458593801E+15
  -5.937357147      0.2376439462E+17  0.2505531727E+15  0.2007208156E+17 -0.1832694855E+16  0.4626355573E+15  0.1894631803E+17  0.2505531727E+15 -0.1832694855E+16  0.4626355573E+15
  -5.936357147      0.2472191634E+17  0.2612775000E+15  0.2088081141E+17 -0.1905621416E+16  0.4799830797E+15  0.1971134232E+17  0.2612775000E+15 -0.1905621416E+16  0.4799830797E+15
  -5.935357147      0.2571750388E+17  0.2724786786E+15  0.2172169339E+17 -0.1981372211E+16  0.4979164375E+15  0.2050691593E+17  0.2724786786E+15 -0.1981372211E+16  0.4979164375E+15
  -5.934357147      0.2675262836E+17  0.2841791394E+15  0.2259597058E+17 -0.2060050284E+16  0.5164500516E+15  0.2133423091E+17  0.2841791394E+15 -0.2060050284E+16  0.5164500516E+15
