# Developed by  NerWann module of the Wannier90 code.
# Total Transport distribution function (in SI units of m^2*C^3/S^3) vs energy in eV
# Content of the columns:
# Energy xxz xyz yyz xzz yzz zzz yxz zxz zyz
#   (if spin decomposition is required, 18 further columns are provided, with the 9
#    components of the TDFtot for the spin up, followed by those for the spin down)
  -4.687851084      0.1279961607E+15 -0.2026094473E+13  0.1273622358E+15  0.3997556357E+12 -0.1412753956E+13  0.9252091016E+14 -0.2026094473E+13  0.3997556357E+12 -0.1412753956E+13
  -4.686851084      0.1363940433E+15 -0.2199957911E+13  0.1358856233E+15  0.3868452705E+12 -0.1523178517E+13  0.9862337596E+14 -0.2199957911E+13  0.3868452705E+12 -0.1523178517E+13
  -4.685851084      0.1453668859E+15 -0.2388884798E+13  0.1447033461E+15  0.4702145652E+12 -0.1483464038E+13  0.1053604396E+15 -0.2388884798E+13  0.4702145652E+12 -0.1483464038E+13
  -4.684851084      0.1547626441E+15 -0.2534784264E+13  0.1541254914E+15  0.4497770863E+12 -0.1637598345E+13  0.1124492888E+15 -0.2534784264E+13  0.4497770863E+12 -0.1637598345E+13
  -4.683851084      0.1646130850E+15 -0.2496176184E+13  0.1639349370E+15  0.4332887786E+12 -0.1755420414E+13  0.1198131215E+15 -0.2496176184E+13  0.4332887786E+12 -0.1755420414E+13
  -4.682851084      0.1749539492E+15 -0.2800754482E+13  0.1742442662E+15  0.5262874887E+12 -0.1901713294E+13  0.1273724586E+15 -0.2800754482E+13  0.5262874887E+12 -0.1901713294E+13
  -4.681851084      0.1857230761E+15 -0.3008416220E+13  0.1850194177E+15  0.5285463660E+12 -0.1932759777E+13  0.1354571633E+15 -0.3008416220E+13  0.5285463660E+12 -0.1932759777E+13
  -4.680851084      0.1972240477E+15 -0.3161201066E+13  0.1964588069E+15  0.5345071512E+12 -0.1985750120E+13  0.1441490186E+15 -0.3161201066E+13  0.5345071512E+12 -0.1985750120E+13
  -4.679851084      0.2093032822E+15 -0.3223490933E+13  0.2084310738E+15  0.5618546952E+12 -0.2204367747E+13  0.1531879264E+15 -0.3223490933E+13  0.5618546952E+12 -0.2204367747E+13
  -4.678851084      0.2216583467E+15 -0.3390048815E+13  0.2208156635E+15  0.5293273436E+12 -0.2392711355E+13  0.1624945461E+15 -0.3390048815E+13  0.5293273436E+12 -0.2392711355E+13
  -4.677851084      0.2348816812E+15 -0.3712595177E+13  0.2340958754E+15  0.6120197012E+12 -0.2387350422E+13  0.1723248580E+15 -0.3712595177E+13  0.6120197012E+12 -0.2387350422E+13
  -4.676851084      0.2487707284E+15 -0.4027578787E+13  0.2478384231E+15  0.6937346747E+12 -0.2585142047E+13  0.1828068927E+15 -0.4027578787E+13  0.6937346747E+12 -0.2585142047E+13
  -4.675851084      0.2633089989E+15 -0.4045936980E+13  0.2622776498E+15  0.7047507672E+12 -0.2640156066E+13  0.1939008255E+15 -0.4045936980E+13  0.7047507672E+12 -0.2640156066E+13
  -4.674851084      0.2784285117E+15 -0.4180445327E+13  0.2773970859E+15  0.7101988553E+12 -0.2933885915E+13  0.2051653001E+15 -0.4180445327E+13  0.7101988553E+12 -0.2933885915E+13
  -4.673851084      0.2942042508E+15 -0.4495355447E+13  0.2932705902E+15  0.6362472993E+12 -0.3038107875E+13  0.2169636394E+15 -0.4495355447E+13  0.6362472993E+12 -0.3038107875E+13
  -4.672851084      0.3108676431E+15 -0.4850802246E+13  0.3098588006E+15  0.7989106356E+12 -0.3064370930E+13  0.2296487529E+15 -0.4850802246E+13  0.7989106356E+12 -0.3064370930E+13
  -4.671851084      0.3283665786E+15 -0.5093366260E+13  0.3273024271E+15  0.8341485585E+12 -0.3309228114E+13  0.2430291838E+15 -0.5093366260E+13  0.8341485585E+12 -0.3309228114E+13
  -4.670851084      0.3465355927E+15 -0.5222742989E+13  0.3453967438E+15  0.6811975785E+12 -0.3500470892E+13  0.2566684249E+15 -0.5222742989E+13  0.6811975785E+12 -0.3500470892E+13
  -4.669851084      0.3657145596E+15 -0.5442144097E+13  0.3645348815E+15  0.8690475363E+12 -0.3730282900E+13  0.2712222913E+15 -0.5442144097E+13  0.8690475363E+12 -0.3730282900E+13
  -4.668851084      0.3854214991E+15 -0.5871072783E+13  0.3844267162E+15  0.7745414519E+12 -0.3878287733E+13  0.2861357595E+15 -0.5871072783E+13  0.7745414519E+12 -0.3878287733E+13
  -4.667851084      0.4064902490E+15 -0.6248654673E+13  0.4052180026E+15  0.9523188076E+12 -0.3972030427E+13  0.3021972923E+15 -0.6248654673E+13  0.9523188076E+12 -0.3972030427E+13
  -4.666851084      0.4284966745E+15 -0.6509021858E+13  0.4272540360E+15  0.8964746335E+12 -0.4312860239E+13  0.3188741923E+15 -0.6509021858E+13  0.8964746335E+12 -0.4312860239E+13
  -4.665851084      0.4512272174E+15 -0.6664555919E+13  0.4497483037E+15  0.1006417069E+13 -0.4464856599E+13  0.3363087347E+15 -0.6664555919E+13  0.1006417069E+13 -0.4464856599E+13
  -4.664851084      0.4750131575E+15 -0.7000986122E+13  0.4737441172E+15  0.8890490393E+12 -0.4772330122E+13  0.3543256507E+15 -0.7000986122E+13  0.8890490393E+12 -0.4772330122E+13
  -4.663851084      0.5001385448E+15 -0.7487315416E+13  0.4987083366E+15  0.1081492793E+13 -0.4930071234E+13  0.3731832046E+15 -0.7487315416E+13  0.1081492793E+13 -0.4930071234E+13
  -4.662851084      0.5262131818E+15 -0.7932770490E+13  0.5247310777E+15  0.1087011003E+13 -0.5023663683E+13  0.3933443724E+15 -0.7932770490E+13  0.1087011003E+13 -0.5023663683E+13
  -4.661851084      0.5534547228E+15 -0.8225260398E+13  0.5518718071E+15  0.1125745176E+13 -0.5420714646E+13  0.4143324724E+15 -0.8225260398E+13  0.1125745176E+13 -0.5420714646E+13
  -4.660851084      0.5820444937E+15 -0.8560167585E+13  0.5804134356E+15  0.1069165449E+13 -0.5802467725E+13  0.4359199442E+15 -0.8560167585E+13  0.1069165449E+13 -0.5802467725E+13
  -4.659851084      0.6117473513E+15 -0.8850363893E+13  0.6100550225E+15  0.1189822041E+13 -0.6024127634E+13  0.4584315950E+15 -0.8850363893E+13  0.1189822041E+13 -0.6024127634E+13
  -4.658851084      0.6426939339E+15 -0.9445704674E+13  0.6410537929E+15  0.1278688162E+13 -0.6195385050E+13  0.4823730475E+15 -0.9445704674E+13  0.1278688162E+13 -0.6195385050E+13
  -4.657851084      0.6752847159E+15 -0.1004291296E+14  0.6734084303E+15  0.1313097544E+13 -0.6431988823E+13  0.5071634014E+15 -0.1004291296E+14  0.1313097544E+13 -0.6431988823E+13
  -4.656851084      0.7093343284E+15 -0.1046613679E+14  0.7074395963E+15  0.1395440943E+13 -0.6824112708E+13  0.5333370054E+15 -0.1046613679E+14  0.1395440943E+13 -0.6824112708E+13
  -4.655851084      0.7447903433E+15 -0.1078763209E+14  0.7428951613E+15  0.1310746412E+13 -0.7120955416E+13  0.5604384769E+15 -0.1078763209E+14  0.1310746412E+13 -0.7120955416E+13
  -4.654851084      0.7812746871E+15 -0.1119903638E+14  0.7791872257E+15  0.1416918472E+13 -0.7759283547E+13  0.5886032715E+15 -0.1119903638E+14  0.1416918472E+13 -0.7759283547E+13
  -4.653851084      0.8201258045E+15 -0.1189107646E+14  0.8181934954E+15  0.1495860734E+13 -0.7791710758E+13  0.6181697820E+15 -0.1189107646E+14  0.1495860734E+13 -0.7791710758E+13
  -4.652851084      0.8604810903E+15 -0.1252555420E+14  0.8583667722E+15  0.1561973085E+13 -0.8065465925E+13  0.6490458319E+15 -0.1252555420E+14  0.1561973085E+13 -0.8065465925E+13
  -4.651851084      0.9025283129E+15 -0.1320790336E+14  0.9003165850E+15  0.1602155286E+13 -0.8602235208E+13  0.6815675226E+15 -0.1320790336E+14  0.1602155286E+13 -0.8602235208E+13
  -4.650851084      0.9464110351E+15 -0.1372501588E+14  0.9440531002E+15  0.1683361101E+13 -0.9087792339E+13  0.7154613810E+15 -0.1372501588E+14  0.1683361101E+13 -0.9087792339E+13
  -4.649851084      0.9921812307E+15 -0.1404132872E+14  0.9897990315E+15  0.1650222209E+13 -0.9561266523E+13  0.7504040787E+15 -0.1404132872E+14  0.1650222209E+13 -0.9561266523E+13
  -4.648851084      0.1039858779E+16 -0.1487793040E+14  0.1037479752E+16  0.1738707937E+13 -0.9956077578E+13  0.7868497072E+15 -0.1487793040E+14  0.1738707937E+13 -0.9956077578E+13
  -4.647851084      0.1089494198E+16 -0.1568340592E+14  0.1086994458E+16  0.1946854912E+13 -0.1018813040E+14  0.8252073779E+15 -0.1568340592E+14  0.1946854912E+13 -0.1018813040E+14
  -4.646851084      0.1141658012E+16 -0.1659941993E+14  0.1138976457E+16  0.1948051457E+13 -0.1070310153E+14  0.8656729838E+15 -0.1659941993E+14  0.1948051457E+13 -0.1070310153E+14
  -4.645851084      0.1195942951E+16 -0.1698596046E+14  0.1193408368E+16  0.1904785391E+13 -0.1126656636E+14  0.9074115265E+15 -0.1698596046E+14  0.1904785391E+13 -0.1126656636E+14
  -4.644851084      0.1252424871E+16 -0.1780310672E+14  0.1249579440E+16  0.1951792876E+13 -0.1184163732E+14  0.9508053805E+15 -0.1780310672E+14  0.1951792876E+13 -0.1184163732E+14
  -4.643851084      0.1311311970E+16 -0.1838026030E+14  0.1308602700E+16  0.2112977737E+13 -0.1235993482E+14  0.9961604708E+15 -0.1838026030E+14  0.2112977737E+13 -0.1235993482E+14
  -4.642851084      0.1372445244E+16 -0.1948556340E+14  0.1369542414E+16  0.2164984979E+13 -0.1281076054E+14  0.1043336581E+16 -0.1948556340E+14  0.2164984979E+13 -0.1281076054E+14
  -4.641851084      0.1436946703E+16 -0.2055582901E+14  0.1433636538E+16  0.2364951636E+13 -0.1321387856E+14  0.1093003413E+16 -0.2055582901E+14  0.2364951636E+13 -0.1321387856E+14
  -4.640851084      0.1503885294E+16 -0.2139971527E+14  0.1500772192E+16  0.2326636180E+13 -0.1399663776E+14  0.1144779533E+16 -0.2139971527E+14  0.2326636180E+13 -0.1399663776E+14
  -4.639851084      0.1573462366E+16 -0.2212034791E+14  0.1570132841E+16  0.2342236003E+13 -0.1460521853E+14  0.1198663397E+16 -0.2212034791E+14  0.2342236003E+13 -0.1460521853E+14
  -4.638851084      0.1645895819E+16 -0.2301202217E+14  0.1642343066E+16  0.2424890455E+13 -0.1548722762E+14  0.1254605431E+16 -0.2301202217E+14  0.2424890455E+13 -0.1548722762E+14
  -4.637851084      0.1721721832E+16 -0.2405454307E+14  0.1718369104E+16  0.2495279086E+13 -0.1605308978E+14  0.1313116308E+16 -0.2405454307E+14  0.2495279086E+13 -0.1605308978E+14
  -4.636851084      0.1800788330E+16 -0.2522013747E+14  0.1797038050E+16  0.2863038545E+13 -0.1654294357E+14  0.1373823676E+16 -0.2522013747E+14  0.2863038545E+13 -0.1654294357E+14
  -4.635851084      0.1882868922E+16 -0.2662114235E+14  0.1879124943E+16  0.2691409474E+13 -0.1728000233E+14  0.1437725932E+16 -0.2662114235E+14  0.2691409474E+13 -0.1728000233E+14
  -4.634851084      0.1968884337E+16 -0.2765550241E+14  0.1964883635E+16  0.2946870274E+13 -0.1809838297E+14  0.1504438344E+16 -0.2765550241E+14  0.2946870274E+13 -0.1809838297E+14
  -4.633851084      0.2058447256E+16 -0.2866959776E+14  0.2054275561E+16  0.2930983756E+13 -0.1898353937E+14  0.1573781317E+16 -0.2866959776E+14  0.2930983756E+13 -0.1898353937E+14
  -4.632851084      0.2151027393E+16 -0.2969868864E+14  0.2147000786E+16  0.2987075836E+13 -0.1984922994E+14  0.1645191661E+16 -0.2969868864E+14  0.2987075836E+13 -0.1984922994E+14
  -4.631851084      0.2247774355E+16 -0.3120649702E+14  0.2243559373E+16  0.3044519897E+13 -0.2073168028E+14  0.1720090941E+16 -0.3120649702E+14  0.3044519897E+13 -0.2073168028E+14
  -4.630851084      0.2349511136E+16 -0.3258461508E+14  0.2345054507E+16  0.3436519716E+13 -0.2149795227E+14  0.1798816289E+16 -0.3258461508E+14  0.3436519716E+13 -0.2149795227E+14
  -4.629851084      0.2454748088E+16 -0.3421326013E+14  0.2450211638E+16  0.3527985633E+13 -0.2226495658E+14  0.1880540976E+16 -0.3421326013E+14  0.3527985633E+13 -0.2226495658E+14
  -4.628851084      0.2564743190E+16 -0.3560618284E+14  0.2559884015E+16  0.3472469731E+13 -0.2349595340E+14  0.1965877133E+16 -0.3560618284E+14  0.3472469731E+13 -0.2349595340E+14
  -4.627851084      0.2678968215E+16 -0.3695899633E+14  0.2674399513E+16  0.3612682126E+13 -0.2441101227E+14  0.2054556585E+16 -0.3695899633E+14  0.3612682126E+13 -0.2441101227E+14
  -4.626851084      0.2798254651E+16 -0.3805787453E+14  0.2793083251E+16  0.3801245847E+13 -0.2559960037E+14  0.2146590054E+16 -0.3805787453E+14  0.3801245847E+13 -0.2559960037E+14
  -4.625851084      0.2922073994E+16 -0.4008799662E+14  0.2916995499E+16  0.3737523822E+13 -0.2672061110E+14  0.2242738429E+16 -0.4008799662E+14  0.3737523822E+13 -0.2672061110E+14
  -4.624851084      0.3051326199E+16 -0.4208711554E+14  0.3046088356E+16  0.4134014665E+13 -0.2759932573E+14  0.2342951126E+16 -0.4208711554E+14  0.4134014665E+13 -0.2759932573E+14
  -4.623851084      0.3186308631E+16 -0.4391248281E+14  0.3180788526E+16  0.4280854253E+13 -0.2871849255E+14  0.2448054092E+16 -0.4391248281E+14  0.4280854253E+13 -0.2871849255E+14
  -4.622851084      0.3326928420E+16 -0.4573139288E+14  0.3320811879E+16  0.4497069999E+13 -0.3000974977E+14  0.2556935119E+16 -0.4573139288E+14  0.4497069999E+13 -0.3000974977E+14
  -4.621851084      0.3472825172E+16 -0.4752405855E+14  0.3466721796E+16  0.4463760158E+13 -0.3131377863E+14  0.2670360912E+16 -0.4752405855E+14  0.4463760158E+13 -0.3131377863E+14
  -4.620851084      0.3625149047E+16 -0.4927272703E+14  0.3618940139E+16  0.4458704893E+13 -0.3278877408E+14  0.2788737190E+16 -0.4927272703E+14  0.4458704893E+13 -0.3278877408E+14
  -4.619851084      0.3783576298E+16 -0.5146571692E+14  0.3777363133E+16  0.4853094171E+13 -0.3448586449E+14  0.2911776107E+16 -0.5146571692E+14  0.4853094171E+13 -0.3448586449E+14
  -4.618851084      0.3948483114E+16 -0.5376413704E+14  0.3942064011E+16  0.5212173961E+13 -0.3560762941E+14  0.3039652629E+16 -0.5376413704E+14  0.5212173961E+13 -0.3560762941E+14
  -4.617851084      0.4120352152E+16 -0.5643977836E+14  0.4113186780E+16  0.5082228694E+13 -0.3675162717E+14  0.3173084270E+16 -0.5643977836E+14  0.5082228694E+13 -0.3675162717E+14
  -4.616851084      0.4300230625E+16 -0.5867706107E+14  0.4293029064E+16  0.5556681029E+13 -0.3853207083E+14  0.3313409479E+16 -0.5867706107E+14  0.5556681029E+13 -0.3853207083E+14
  -4.615851084      0.4486821884E+16 -0.6081381798E+14  0.4479346699E+16  0.5660789790E+13 -0.4006020118E+14  0.3458094488E+16 -0.6081381798E+14  0.5660789790E+13 -0.4006020118E+14
  -4.614851084      0.4680348554E+16 -0.6311640422E+14  0.4673020458E+16  0.5808332706E+13 -0.4197031353E+14  0.3609073421E+16 -0.6311640422E+14  0.5808332706E+13 -0.4197031353E+14
  -4.613851084      0.4882524527E+16 -0.6605324377E+14  0.4874744364E+16  0.5829321936E+13 -0.4385150756E+14  0.3765918494E+16 -0.6605324377E+14  0.5829321936E+13 -0.4385150756E+14
  -4.612851084      0.5093569393E+16 -0.6892168598E+14  0.5085255660E+16  0.6187564958E+13 -0.4571600403E+14  0.3929484409E+16 -0.6892168598E+14  0.6187564958E+13 -0.4571600403E+14
  -4.611851084      0.5312611974E+16 -0.7179300238E+14  0.5304515446E+16  0.6813773474E+13 -0.4738420745E+14  0.4100250277E+16 -0.7179300238E+14  0.6813773474E+13 -0.4738420745E+14
  -4.610851084      0.5540908592E+16 -0.7520374767E+14  0.5531919433E+16  0.6717399742E+13 -0.4922072434E+14  0.4278098200E+16 -0.7520374767E+14  0.6717399742E+13 -0.4922072434E+14
  -4.609851084      0.5778439438E+16 -0.7805234318E+14  0.5769426634E+16  0.6783583706E+13 -0.5123531637E+14  0.4463264110E+16 -0.7805234318E+14  0.6783583706E+13 -0.5123531637E+14
  -4.608851084      0.6026834892E+16 -0.8116788189E+14  0.6017451758E+16  0.7314214470E+13 -0.5366239203E+14  0.4656298760E+16 -0.8116788189E+14  0.7314214470E+13 -0.5366239203E+14
  -4.607851084      0.6284055846E+16 -0.8425563917E+14  0.6274194771E+16  0.7406620386E+13 -0.5598788245E+14  0.4856338822E+16 -0.8425563917E+14  0.7406620386E+13 -0.5598788245E+14
  -4.606851084      0.6551964714E+16 -0.8771446640E+14  0.6542105288E+16  0.7527265857E+13 -0.5849444459E+14  0.5065020540E+16 -0.8771446640E+14  0.7527265857E+13 -0.5849444459E+14
  -4.605851084      0.6831032632E+16 -0.9197894383E+14  0.6821067993E+16  0.8067100515E+13 -0.6052303723E+14  0.5282244727E+16 -0.9197894383E+14  0.8067100515E+13 -0.6052303723E+14
  -4.604851084      0.7122263864E+16 -0.9593183468E+14  0.7111266567E+16  0.8410295904E+13 -0.6299564221E+14  0.5509213694E+16 -0.9593183468E+14  0.8410295904E+13 -0.6299564221E+14
  -4.603851084      0.7424962435E+16 -0.9967692545E+14  0.7413919645E+16  0.8720508495E+13 -0.6564054258E+14  0.5745065305E+16 -0.9967692545E+14  0.8720508495E+13 -0.6564054258E+14
  -4.602851084      0.7740216972E+16 -0.1037664052E+15  0.7728760440E+16  0.8889374372E+13 -0.6850909140E+14  0.5990391574E+16 -0.1037664052E+15  0.8889374372E+13 -0.6850909140E+14
  -4.601851084      0.8068260585E+16 -0.1077897891E+15  0.8056537176E+16  0.9244773519E+13 -0.7140959483E+14  0.6246292620E+16 -0.1077897891E+15  0.9244773519E+13 -0.7140959483E+14
  -4.600851084      0.8409229889E+16 -0.1121290883E+15  0.8397279854E+16  0.9436422753E+13 -0.7429585858E+14  0.6512160438E+16 -0.1121290883E+15  0.9436422753E+13 -0.7429585858E+14
  -4.599851084      0.8764501058E+16 -0.1168602389E+15  0.8751786804E+16  0.1001564255E+14 -0.7769995207E+14  0.6788755443E+16 -0.1168602389E+15  0.1001564255E+14 -0.7769995207E+14
  -4.598851084      0.9134681660E+16 -0.1219193715E+15  0.9121773826E+16  0.1047202818E+14 -0.8077557042E+14  0.7076560233E+16 -0.1219193715E+15  0.1047202818E+14 -0.8077557042E+14
  -4.597851084      0.9519466151E+16 -0.1276138044E+15  0.9505464970E+16  0.1076419582E+14 -0.8371027482E+14  0.7376917845E+16 -0.1276138044E+15  0.1076419582E+14 -0.8371027482E+14
  -4.596851084      0.9920511849E+16 -0.1324337371E+15  0.9907015976E+16  0.1129444038E+14 -0.8701899896E+14  0.7690250149E+16 -0.1324337371E+15  0.1129444038E+14 -0.8701899896E+14
  -4.595851084      0.1033764170E+17 -0.1373559188E+15  0.1032284599E+17  0.1164346052E+14 -0.9097973459E+14  0.8015210549E+16 -0.1373559188E+15  0.1164346052E+14 -0.9097973459E+14
  -4.594851084      0.1077192129E+17 -0.1431076670E+15  0.1075621623E+17  0.1175967954E+14 -0.9492678892E+14  0.8354082354E+16 -0.1431076670E+15  0.1175967954E+14 -0.9492678892E+14
  -4.593851084      0.1122288371E+17 -0.1489865020E+15  0.1120801315E+17  0.1229414451E+14 -0.9865162152E+14  0.8705864482E+16 -0.1489865020E+15  0.1229414451E+14 -0.9865162152E+14
  -4.592851084      0.1169320408E+17 -0.1553687235E+15  0.1167708347E+17  0.1276741850E+14 -0.1027878895E+15  0.9071774765E+16 -0.1553687235E+15  0.1276741850E+14 -0.1027878895E+15
  -4.591851084      0.1218221634E+17 -0.1615934458E+15  0.1216535969E+17  0.1355770908E+14 -0.1070731002E+15  0.9453471478E+16 -0.1615934458E+15  0.1355770908E+14 -0.1070731002E+15
  -4.590851084      0.1269093186E+17 -0.1685951185E+15  0.1267367547E+17  0.1402824383E+14 -0.1111812419E+15  0.9850745417E+16 -0.1685951185E+15  0.1402824383E+14 -0.1111812419E+15
  -4.589851084      0.1322167260E+17 -0.1756710341E+15  0.1320339308E+17  0.1424773206E+14 -0.1157311478E+15  0.1026512007E+17 -0.1756710341E+15  0.1424773206E+14 -0.1157311478E+15
  -4.588851084      0.1377260899E+17 -0.1826117108E+15  0.1375354670E+17  0.1505312426E+14 -0.1202547748E+15  0.1069526118E+17 -0.1826117108E+15  0.1505312426E+14 -0.1202547748E+15
  -4.587851084      0.1434588678E+17 -0.1891822142E+15  0.1432723051E+17  0.1556997086E+14 -0.1255555919E+15  0.1114259113E+17 -0.1891822142E+15  0.1556997086E+14 -0.1255555919E+15
  -4.586851084      0.1494296285E+17 -0.1973519979E+15  0.1492328808E+17  0.1561912974E+14 -0.1308769221E+15  0.1160821319E+17 -0.1973519979E+15  0.1561912974E+14 -0.1308769221E+15
  -4.585851084      0.1556353274E+17 -0.2056229006E+15  0.1554304375E+17  0.1656585161E+14 -0.1361942306E+15  0.1209209595E+17 -0.2056229006E+15  0.1656585161E+14 -0.1361942306E+15
  -4.584851084      0.1620937416E+17 -0.2142896032E+15  0.1618824322E+17  0.1726004229E+14 -0.1417800860E+15  0.1259699495E+17 -0.2142896032E+15  0.1726004229E+14 -0.1417800860E+15
  -4.583851084      0.1688232466E+17 -0.2231111654E+15  0.1685987734E+17  0.1820290974E+14 -0.1469383321E+15  0.1312218905E+17 -0.2231111654E+15  0.1820290974E+14 -0.1469383321E+15
  -4.582851084      0.1758158817E+17 -0.2317953334E+15  0.1755838488E+17  0.1891677116E+14 -0.1533213355E+15  0.1366846702E+17 -0.2317953334E+15  0.1891677116E+14 -0.1533213355E+15
  -4.581851084      0.1830915287E+17 -0.2413008360E+15  0.1828579328E+17  0.1919733807E+14 -0.1595153703E+15  0.1423607718E+17 -0.2413008360E+15  0.1919733807E+14 -0.1595153703E+15
  -4.580851084      0.1906602603E+17 -0.2511133807E+15  0.1904125696E+17  0.1988344883E+14 -0.1662637578E+15  0.1482823436E+17 -0.2511133807E+15  0.1988344883E+14 -0.1662637578E+15
