# Developed by  NerWann module of the Wannier90 code.
# Total Transport distribution function (in SI units of m^2*C^3/S^3) vs energy in eV
# Content of the columns:
# Energy xxz xyz yyz xzz yzz zzz yxz zxz zyz
#   (if spin decomposition is required, 18 further columns are provided, with the 9
#    components of the TDFtot for the spin up, followed by those for the spin down)
   7.045140150      0.3010883000E+15  0.2133224377E+13  0.2979971467E+15 -0.1038968896E+13 -0.1092829297E+13  0.3961264236E+15  0.2133224377E+13 -0.1038968896E+13 -0.1092829297E+13
   7.046140150      0.3220714284E+15  0.2217527476E+13  0.3173532717E+15 -0.1052610322E+13 -0.1479314967E+13  0.4234102458E+15  0.2217527476E+13 -0.1052610322E+13 -0.1479314967E+13
   7.047140150      0.3429232769E+15  0.2323455819E+13  0.3380462551E+15 -0.6287251341E+12 -0.1888465106E+13  0.4522714226E+15  0.2323455819E+13 -0.6287251341E+12 -0.1888465106E+13
   7.048140150      0.3640481243E+15  0.2516622864E+13  0.3602319403E+15 -0.1253502282E+13 -0.1369808856E+13  0.4810013785E+15  0.2516622864E+13 -0.1253502282E+13 -0.1369808856E+13
   7.049140150      0.3879513022E+15  0.2533279289E+13  0.3833234633E+15 -0.7345877000E+12 -0.9627091886E+12  0.5118587520E+15  0.2533279289E+13 -0.7345877000E+12 -0.9627091886E+12
   7.050140150      0.4123523070E+15  0.2453467851E+13  0.4080355564E+15 -0.1364961774E+13 -0.1457496598E+13  0.5438877582E+15  0.2453467851E+13 -0.1364961774E+13 -0.1457496598E+13
   7.051140150      0.4374294383E+15  0.1811837179E+13  0.4330811251E+15 -0.9096337906E+12 -0.1435845836E+13  0.5779519226E+15  0.1811837179E+13 -0.9096337906E+12 -0.1435845836E+13
   7.052140150      0.4652666606E+15  0.1761133734E+13  0.4613046230E+15 -0.9767308446E+12 -0.1949559238E+13  0.6128655159E+15  0.1761133734E+13 -0.9767308446E+12 -0.1949559238E+13
   7.053140150      0.4956572136E+15  0.2321570969E+13  0.4907771659E+15 -0.1101022550E+13 -0.1543637669E+13  0.6502861827E+15  0.2321570969E+13 -0.1101022550E+13 -0.1543637669E+13
   7.054140150      0.5264470391E+15  0.2800277102E+13  0.5211496088E+15 -0.8588310121E+12 -0.1518891856E+13  0.6916440935E+15  0.2800277102E+13 -0.8588310121E+12 -0.1518891856E+13
   7.055140150      0.5582315692E+15  0.2666957654E+13  0.5518811363E+15 -0.1565401966E+13 -0.2180303497E+13  0.7326309880E+15  0.2666957654E+13 -0.1565401966E+13 -0.2180303497E+13
   7.056140150      0.5907120366E+15  0.3006069832E+13  0.5847529184E+15 -0.1111805466E+13 -0.2084868990E+13  0.7762947130E+15  0.3006069832E+13 -0.1111805466E+13 -0.2084868990E+13
   7.057140150      0.6267739398E+15  0.2872952933E+13  0.6209468807E+15 -0.7397478426E+12 -0.1639631304E+13  0.8234113954E+15  0.2872952933E+13 -0.7397478426E+12 -0.1639631304E+13
   7.058140150      0.6628310538E+15  0.3391588282E+13  0.6566235941E+15 -0.1645339318E+13 -0.2386966524E+13  0.8711757500E+15  0.3391588282E+13 -0.1645339318E+13 -0.2386966524E+13
   7.059140150      0.6990099737E+15  0.2795807958E+13  0.6931461830E+15 -0.1520415496E+13 -0.2039719282E+13  0.9213297468E+15  0.2795807958E+13 -0.1520415496E+13 -0.2039719282E+13
   7.060140150      0.7390956833E+15  0.3246417583E+13  0.7332895929E+15 -0.1815339943E+13 -0.2549883536E+13  0.9734103430E+15  0.3246417583E+13 -0.1815339943E+13 -0.2549883536E+13
   7.061140150      0.7812283799E+15  0.2666609294E+13  0.7750001021E+15 -0.1385655271E+13 -0.2255826894E+13  0.1026559792E+16  0.2666609294E+13 -0.1385655271E+13 -0.2255826894E+13
   7.062140150      0.8262830764E+15  0.2612563141E+13  0.8191519663E+15 -0.1459996104E+13 -0.2257996390E+13  0.1085001928E+16  0.2612563141E+13 -0.1459996104E+13 -0.2257996390E+13
   7.063140150      0.8724318187E+15  0.2654036004E+13  0.8657232598E+15 -0.1512491109E+13 -0.2604244828E+13  0.1145500193E+16  0.2654036004E+13 -0.1512491109E+13 -0.2604244828E+13
   7.064140150      0.9202905062E+15  0.2894182200E+13  0.9136727555E+15 -0.1278149851E+13 -0.2469322244E+13  0.1207402575E+16  0.2894182200E+13 -0.1278149851E+13 -0.2469322244E+13
   7.065140150      0.9721500391E+15  0.3195930269E+13  0.9657339181E+15 -0.1700782674E+13 -0.2400851919E+13  0.1275004991E+16  0.3195930269E+13 -0.1700782674E+13 -0.2400851919E+13
   7.066140150      0.1026775755E+16  0.3144640567E+13  0.1018994855E+16 -0.1549241088E+13 -0.2339262398E+13  0.1346639504E+16  0.3144640567E+13 -0.1549241088E+13 -0.2339262398E+13
   7.067140150      0.1082342751E+16  0.3888530617E+13  0.1073795884E+16 -0.1372162846E+13 -0.2890600281E+13  0.1419043555E+16  0.3888530617E+13 -0.1372162846E+13 -0.2890600281E+13
   7.068140150      0.1139868529E+16  0.3527988624E+13  0.1132399301E+16 -0.1944624472E+13 -0.3108659645E+13  0.1496111447E+16  0.3527988624E+13 -0.1944624472E+13 -0.3108659645E+13
   7.069140150      0.1201716673E+16  0.3580639434E+13  0.1192559160E+16 -0.1968577489E+13 -0.3320797680E+13  0.1576230812E+16  0.3580639434E+13 -0.1968577489E+13 -0.3320797680E+13
   7.070140150      0.1263789567E+16  0.4274209047E+13  0.1254996594E+16 -0.2255145781E+13 -0.3264895565E+13  0.1657898879E+16  0.4274209047E+13 -0.2255145781E+13 -0.3264895565E+13
   7.071140150      0.1328952829E+16  0.3998482513E+13  0.1320040404E+16 -0.2930975695E+13 -0.3462993591E+13  0.1744381327E+16  0.3998482513E+13 -0.2930975695E+13 -0.3462993591E+13
   7.072140150      0.1395740126E+16  0.2961438114E+13  0.1386499253E+16 -0.2195611322E+13 -0.4001634374E+13  0.1832635475E+16  0.2961438114E+13 -0.2195611322E+13 -0.4001634374E+13
   7.073140150      0.1467185081E+16  0.2609495789E+13  0.1457939913E+16 -0.1365307882E+13 -0.3925064195E+13  0.1924871280E+16  0.2609495789E+13 -0.1365307882E+13 -0.3925064195E+13
   7.074140150      0.1543871248E+16  0.3579743904E+13  0.1534134428E+16 -0.2249958699E+13 -0.4576023022E+13  0.2023216983E+16  0.3579743904E+13 -0.2249958699E+13 -0.4576023022E+13
   7.075140150      0.1626441938E+16  0.4047109113E+13  0.1616006304E+16 -0.7669186295E+12 -0.3432899822E+13  0.2129087269E+16  0.4047109113E+13 -0.7669186295E+12 -0.3432899822E+13
   7.076140150      0.1711285933E+16  0.4414918819E+13  0.1700514082E+16 -0.2730585054E+13 -0.3199434805E+13  0.2241128003E+16  0.4414918819E+13 -0.2730585054E+13 -0.3199434805E+13
   7.077140150      0.1799025788E+16  0.3848233793E+13  0.1788974840E+16 -0.2379913983E+13 -0.4026941831E+13  0.2355898033E+16  0.3848233793E+13 -0.2379913983E+13 -0.4026941831E+13
   7.078140150      0.1890303396E+16  0.4317624134E+13  0.1878992060E+16 -0.2844176473E+13 -0.5011506246E+13  0.2475204261E+16  0.4317624134E+13 -0.2844176473E+13 -0.5011506246E+13
   7.079140150      0.1983178598E+16  0.4337847636E+13  0.1972040091E+16 -0.1752798430E+13 -0.4273491171E+13  0.2599218532E+16  0.4337847636E+13 -0.1752798430E+13 -0.4273491171E+13
   7.080140150      0.2081681368E+16  0.4232615776E+13  0.2068284345E+16 -0.1470879885E+13 -0.5951316824E+13  0.2727309856E+16  0.4232615776E+13 -0.1470879885E+13 -0.5951316824E+13
   7.081140150      0.2182325234E+16  0.4842604627E+13  0.2169967011E+16 -0.2881358872E+13 -0.5193687912E+13  0.2859589729E+16  0.4842604627E+13 -0.2881358872E+13 -0.5193687912E+13
   7.082140150      0.2288126031E+16  0.5463786033E+13  0.2275262055E+16 -0.2990290965E+13 -0.6294025879E+13  0.2996482127E+16  0.5463786033E+13 -0.2990290965E+13 -0.6294025879E+13
   7.083140150      0.2399091744E+16  0.5496169002E+13  0.2385734269E+16 -0.3446922551E+13 -0.6459540696E+13  0.3143757953E+16  0.5496169002E+13 -0.3446922551E+13 -0.6459540696E+13
   7.084140150      0.2514071772E+16  0.4115282275E+13  0.2501117309E+16 -0.2316478530E+13 -0.5684141820E+13  0.3294045622E+16  0.4115282275E+13 -0.2316478530E+13 -0.5684141820E+13
   7.085140150      0.2637636335E+16  0.4298305417E+13  0.2624327043E+16 -0.2479604548E+13 -0.4772371818E+13  0.3453416837E+16  0.4298305417E+13 -0.2479604548E+13 -0.4772371818E+13
   7.086140150      0.2769088196E+16  0.4716293373E+13  0.2753770777E+16 -0.1543255501E+13 -0.6884604077E+13  0.3622780640E+16  0.4716293373E+13 -0.1543255501E+13 -0.6884604077E+13
   7.087140150      0.2901408873E+16  0.4601761445E+13  0.2886082522E+16 -0.2665314078E+13 -0.6707333811E+13  0.3798363428E+16  0.4601761445E+13 -0.2665314078E+13 -0.6707333811E+13
   7.088140150      0.3039745420E+16  0.5010984905E+13  0.3025451340E+16 -0.3240701444E+13 -0.6336206773E+13  0.3979500247E+16  0.5010984905E+13 -0.3240701444E+13 -0.6336206773E+13
   7.089140150      0.3185350610E+16  0.5658733734E+13  0.3170147488E+16 -0.2744359987E+13 -0.6917737502E+13  0.4169602354E+16  0.5658733734E+13 -0.2744359987E+13 -0.6917737502E+13
   7.090140150      0.3341500686E+16  0.5455869412E+13  0.3323636242E+16 -0.2356106739E+13 -0.8166799238E+13  0.4370198551E+16  0.5455869412E+13 -0.2356106739E+13 -0.8166799238E+13
   7.091140150      0.3497828326E+16  0.6658312560E+13  0.3481295510E+16 -0.3423554480E+13 -0.6592456433E+13  0.4577644785E+16  0.6658312560E+13 -0.3423554480E+13 -0.6592456433E+13
   7.092140150      0.3662422755E+16  0.5367862531E+13  0.3644473448E+16 -0.2409169735E+13 -0.7825093238E+13  0.4792989018E+16  0.5367862531E+13 -0.2409169735E+13 -0.7825093238E+13
   7.093140150      0.3831112668E+16  0.6463712379E+13  0.3811855362E+16 -0.2279627864E+13 -0.9185707844E+13  0.5014466805E+16  0.6463712379E+13 -0.2279627864E+13 -0.9185707844E+13
   7.094140150      0.4006539656E+16  0.6547940709E+13  0.3987414527E+16 -0.3444392317E+13 -0.8390394318E+13  0.5243299855E+16  0.6547940709E+13 -0.3444392317E+13 -0.8390394318E+13
   7.095140150      0.4190883802E+16  0.7951127963E+13  0.4170780915E+16 -0.4177595122E+13 -0.9728635029E+13  0.5485410775E+16  0.7951127963E+13 -0.4177595122E+13 -0.9728635029E+13
   7.096140150      0.4384658415E+16  0.6810177685E+13  0.4365391973E+16 -0.3693659746E+13 -0.9511967190E+13  0.5737627405E+16  0.6810177685E+13 -0.3693659746E+13 -0.9511967190E+13
   7.097140150      0.4586483025E+16  0.7253241584E+13  0.4566347748E+16 -0.3503660180E+13 -0.1028835113E+14  0.5998564697E+16  0.7253241584E+13 -0.3503660180E+13 -0.1028835113E+14
   7.098140150      0.4801057457E+16  0.6536352500E+13  0.4779176460E+16 -0.3848278241E+13 -0.1001462030E+14  0.6278903401E+16  0.6536352500E+13 -0.3848278241E+13 -0.1001462030E+14
   7.099140150      0.5023466699E+16  0.6350235203E+13  0.5000747294E+16 -0.2458253265E+13 -0.1031312770E+14  0.6572006300E+16  0.6350235203E+13 -0.2458253265E+13 -0.1031312770E+14
   7.100140150      0.5252273563E+16  0.6916447979E+13  0.5230550612E+16 -0.2846872526E+13 -0.9458232339E+13  0.6873413479E+16  0.6916447979E+13 -0.2846872526E+13 -0.9458232339E+13
   7.101140150      0.5495292339E+16  0.7928355442E+13  0.5469082612E+16 -0.3388574767E+13 -0.1142315961E+14  0.7187307773E+16  0.7928355442E+13 -0.3388574767E+13 -0.1142315961E+14
   7.102140150      0.5746104251E+16  0.7787573036E+13  0.5720007562E+16 -0.2792515267E+13 -0.1064818374E+14  0.7515382911E+16  0.7787573036E+13 -0.2792515267E+13 -0.1064818374E+14
   7.103140150      0.6005593670E+16  0.7374177874E+13  0.5979898356E+16 -0.3689363225E+13 -0.1230240927E+14  0.7853340500E+16  0.7374177874E+13 -0.3689363225E+13 -0.1230240927E+14
   7.104140150      0.6274745519E+16  0.7487601633E+13  0.6249633299E+16 -0.4274690563E+13 -0.1245025576E+14  0.8205106511E+16  0.7487601633E+13 -0.4274690563E+13 -0.1245025576E+14
   7.105140150      0.6555478987E+16  0.8578505206E+13  0.6528505010E+16 -0.3081551842E+13 -0.1404451806E+14  0.8574077385E+16  0.8578505206E+13 -0.3081551842E+13 -0.1404451806E+14
   7.106140150      0.6849174783E+16  0.1028222905E+14  0.6820119331E+16 -0.3806145635E+13 -0.1362522024E+14  0.8957450301E+16  0.1028222905E+14 -0.3806145635E+13 -0.1362522024E+14
   7.107140150      0.7156723582E+16  0.1009342924E+14  0.7126031149E+16 -0.4185030931E+13 -0.1492179331E+14  0.9358317654E+16  0.1009342924E+14 -0.4185030931E+13 -0.1492179331E+14
   7.108140150      0.7475749753E+16  0.1016750025E+14  0.7444647785E+16 -0.4606419290E+13 -0.1498226809E+14  0.9775107935E+16  0.1016750025E+14 -0.4606419290E+13 -0.1498226809E+14
   7.109140150      0.7808695656E+16  0.1158687510E+14  0.7775580593E+16 -0.5500958445E+13 -0.1476733999E+14  0.1020694035E+17  0.1158687510E+14 -0.5500958445E+13 -0.1476733999E+14
   7.110140150      0.8151412862E+16  0.1027002672E+14  0.8118675474E+16 -0.4087830027E+13 -0.1702676742E+14  0.1065705663E+17  0.1027002672E+14 -0.4087830027E+13 -0.1702676742E+14
   7.111140150      0.8509720441E+16  0.9890864806E+13  0.8478383111E+16 -0.4435345161E+13 -0.1607108015E+14  0.1113017556E+17  0.9890864806E+13 -0.4435345161E+13 -0.1607108015E+14
   7.112140150      0.8888774105E+16  0.1033226376E+14  0.8853779546E+16 -0.3680024204E+13 -0.1623294196E+14  0.1162076167E+17  0.1033226376E+14 -0.3680024204E+13 -0.1623294196E+14
   7.113140150      0.9284678414E+16  0.9743356905E+13  0.9246747020E+16 -0.2770769209E+13 -0.1892520232E+14  0.1213521375E+17  0.9743356905E+13 -0.2770769209E+13 -0.1892520232E+14
   7.114140150      0.9693506637E+16  0.1047974602E+14  0.9656270646E+16 -0.4944660389E+13 -0.1912009278E+14  0.1267266654E+17  0.1047974602E+14 -0.4944660389E+13 -0.1912009278E+14
   7.115140150      0.1011812006E+17  0.1192302734E+14  0.1008014892E+17 -0.4132573518E+13 -0.1957359887E+14  0.1322918650E+17  0.1192302734E+14 -0.4132573518E+13 -0.1957359887E+14
   7.116140150      0.1056286963E+17  0.1384134964E+14  0.1052007946E+17 -0.4874303196E+13 -0.2044720258E+14  0.1380974676E+17  0.1384134964E+14 -0.4874303196E+13 -0.2044720258E+14
   7.117140150      0.1102172058E+17  0.1294296127E+14  0.1097861353E+17 -0.4549904968E+13 -0.2153069390E+14  0.1441038775E+17  0.1294296127E+14 -0.4549904968E+13 -0.2153069390E+14
   7.118140150      0.1150653422E+17  0.1410500674E+14  0.1146354663E+17 -0.6169529081E+13 -0.2075292539E+14  0.1503877919E+17  0.1410500674E+14 -0.6169529081E+13 -0.2075292539E+14
   7.119140150      0.1201024906E+17  0.1393749498E+14  0.1196365348E+17 -0.2951246383E+13 -0.2168972204E+14  0.1569591883E+17  0.1393749498E+14 -0.2951246383E+13 -0.2168972204E+14
   7.120140150      0.1253365623E+17  0.1507493023E+14  0.1248465902E+17 -0.5181689714E+13 -0.2560659715E+14  0.1638064932E+17  0.1507493023E+14 -0.5181689714E+13 -0.2560659715E+14
   7.121140150      0.1307561299E+17  0.1417499187E+14  0.1302481560E+17 -0.4869381248E+13 -0.2605890426E+14  0.1708398432E+17  0.1417499187E+14 -0.4869381248E+13 -0.2605890426E+14
   7.122140150      0.1363359519E+17  0.1630900768E+14  0.1358344944E+17 -0.6047764220E+13 -0.2595315885E+14  0.1781761943E+17  0.1630900768E+14 -0.6047764220E+13 -0.2595315885E+14
   7.123140150      0.1421943856E+17  0.1637119138E+14  0.1416953771E+17 -0.6022862955E+13 -0.2698166094E+14  0.1858592306E+17  0.1637119138E+14 -0.6022862955E+13 -0.2698166094E+14
   7.124140150      0.1483402466E+17  0.1897436070E+14  0.1477809055E+17 -0.4961313076E+13 -0.2771535317E+14  0.1938431561E+17  0.1897436070E+14 -0.4961313076E+13 -0.2771535317E+14
   7.125140150      0.1547548864E+17  0.1913557108E+14  0.1541553939E+17 -0.6615240026E+13 -0.3040750935E+14  0.2022318606E+17  0.1913557108E+14 -0.6615240026E+13 -0.3040750935E+14
   7.126140150      0.1613705433E+17  0.1776652222E+14  0.1607793796E+17 -0.5040984274E+13 -0.2881495785E+14  0.2109074611E+17  0.1776652222E+14 -0.5040984274E+13 -0.2881495785E+14
   7.127140150      0.1682589575E+17  0.1788935394E+14  0.1676590346E+17 -0.6391735323E+13 -0.3052784240E+14  0.2199340955E+17  0.1788935394E+14 -0.6391735323E+13 -0.3052784240E+14
   7.128140150      0.1755085496E+17  0.1955440783E+14  0.1748604844E+17 -0.6528431151E+13 -0.3282359418E+14  0.2293711227E+17  0.1955440783E+14 -0.6528431151E+13 -0.3282359418E+14
   7.129140150      0.1830276236E+17  0.1965863843E+14  0.1823488535E+17 -0.6866719330E+13 -0.3349201611E+14  0.2391727786E+17  0.1965863843E+14 -0.6866719330E+13 -0.3349201611E+14
   7.130140150      0.1908361402E+17  0.1978542411E+14  0.1901515148E+17 -0.6770859422E+13 -0.3490319979E+14  0.2493697653E+17  0.1978542411E+14 -0.6770859422E+13 -0.3490319979E+14
   7.131140150      0.1989834533E+17  0.2038923609E+14  0.1982514195E+17 -0.5689089903E+13 -0.3880181984E+14  0.2599856715E+17  0.2038923609E+14 -0.5689089903E+13 -0.3880181984E+14
   7.132140150      0.2074453162E+17  0.2296351187E+14  0.2067066652E+17 -0.8438025073E+13 -0.3861120793E+14  0.2710238331E+17  0.2296351187E+14 -0.8438025073E+13 -0.3861120793E+14
   7.133140150      0.2162921242E+17  0.2393885940E+14  0.2155155102E+17 -0.9343340444E+13 -0.3942885837E+14  0.2826120453E+17  0.2393885940E+14 -0.9343340444E+13 -0.3942885837E+14
   7.134140150      0.2254565387E+17  0.2436033317E+14  0.2246590499E+17 -0.6676270276E+13 -0.4032865088E+14  0.2946438740E+17  0.2436033317E+14 -0.6676270276E+13 -0.4032865088E+14
   7.135140150      0.2350637010E+17  0.2683830193E+14  0.2342141920E+17 -0.6682123603E+13 -0.4333434526E+14  0.3070741342E+17  0.2683830193E+14 -0.6682123603E+13 -0.4333434526E+14
   7.136140150      0.2450179587E+17  0.2658996977E+14  0.2441403002E+17 -0.6747730524E+13 -0.4421206102E+14  0.3200445319E+17  0.2658996977E+14 -0.6747730524E+13 -0.4421206102E+14
   7.137140150      0.2553162371E+17  0.2593837895E+14  0.2544189950E+17 -0.9526151292E+13 -0.4773724463E+14  0.3335550839E+17  0.2593837895E+14 -0.9526151292E+13 -0.4773724463E+14
   7.138140150      0.2660528977E+17  0.2906297456E+14  0.2651145180E+17 -0.8399440687E+13 -0.4776350800E+14  0.3475752309E+17  0.2906297456E+14 -0.8399440687E+13 -0.4776350800E+14
   7.139140150      0.2772375482E+17  0.3050319231E+14  0.2762512567E+17 -0.7377876059E+13 -0.5022669348E+14  0.3621180458E+17  0.3050319231E+14 -0.7377876059E+13 -0.5022669348E+14
   7.140140150      0.2888880996E+17  0.3194541457E+14  0.2878641956E+17 -0.9216100615E+13 -0.5278178981E+14  0.3773685992E+17  0.3194541457E+14 -0.9216100615E+13 -0.5278178981E+14
   7.141140150      0.3010500960E+17  0.3173565277E+14  0.2999775747E+17 -0.8485322908E+13 -0.5312522224E+14  0.3932850730E+17  0.3173565277E+14 -0.8485322908E+13 -0.5312522224E+14
   7.142140150      0.3136567751E+17  0.3260839389E+14  0.3125782510E+17 -0.9669927383E+13 -0.5539426633E+14  0.4098065892E+17  0.3260839389E+14 -0.9669927383E+13 -0.5539426633E+14
   7.143140150      0.3267926204E+17  0.3530828080E+14  0.3256519038E+17 -0.1105721645E+14 -0.5904095861E+14  0.4269428316E+17  0.3530828080E+14 -0.1105721645E+14 -0.5904095861E+14
   7.144140150      0.3404871141E+17  0.3521001720E+14  0.3393126651E+17 -0.9678588599E+13 -0.6236391220E+14  0.4448420402E+17  0.3521001720E+14 -0.9678588599E+13 -0.6236391220E+14
   7.145140150      0.3547431129E+17  0.3575652651E+14  0.3535390572E+17 -0.1110058474E+14 -0.6355340749E+14  0.4634889725E+17  0.3575652651E+14 -0.1110058474E+14 -0.6355340749E+14
   7.146140150      0.3696542643E+17  0.3908832789E+14  0.3683748395E+17 -0.1106078774E+14 -0.6715610704E+14  0.4828740631E+17  0.3908832789E+14 -0.1106078774E+14 -0.6715610704E+14
   7.147140150      0.3850970016E+17  0.4152627658E+14  0.3837390377E+17 -0.1210301405E+14 -0.6995795550E+14  0.5029755562E+17  0.4152627658E+14 -0.1210301405E+14 -0.6995795550E+14
   7.148140150      0.4011486278E+17  0.4143768870E+14  0.3997647811E+17 -0.1298059408E+14 -0.7258262632E+14  0.5239475908E+17  0.4143768870E+14 -0.1298059408E+14 -0.7258262632E+14
   7.149140150      0.4178251084E+17  0.4224417475E+14  0.4164155803E+17 -0.1279585817E+14 -0.7228097459E+14  0.5457032918E+17  0.4224417475E+14 -0.1279585817E+14 -0.7228097459E+14
   7.150140150      0.4352706069E+17  0.4563479862E+14  0.4337651155E+17 -0.1185941754E+14 -0.7681578496E+14  0.5684819039E+17  0.4563479862E+14 -0.1185941754E+14 -0.7681578496E+14
   7.151140150      0.4533335731E+17  0.4601912848E+14  0.4517957617E+17 -0.1305306257E+14 -0.8166732240E+14  0.5921371175E+17  0.4601912848E+14 -0.1305306257E+14 -0.8166732240E+14
   7.152140150      0.4721200123E+17  0.4842730101E+14  0.4705358972E+17 -0.1385776357E+14 -0.8359549145E+14  0.6166257805E+17  0.4842730101E+14 -0.1385776357E+14 -0.8359549145E+14
